 L=8, code time=0.991050 (in min) 
wij_min=3.77997266216567595620e-05, wij_max=2.47011449094244994740e+01 
"mu" 	 	 "||A||^2" 
1.00000000000000005551e-01	1.28451581789945203127e+03
1.00990099009900996530e-01	1.27213288251867857070e+03
1.01980198019801987508e-01	1.25997678534094598035e+03
1.02970297029702978486e-01	1.24804187945095191026e+03
1.03960396039603969465e-01	1.23632269081207505224e+03
1.04950495049504960443e-01	1.22481391181557842174e+03
1.05940594059405951421e-01	1.21351039513176351647e+03
1.06930693069306942400e-01	1.20240714784525380310e+03
1.07920792079207933378e-01	1.19149932585757255765e+03
1.08910891089108924357e-01	1.18078222854160117095e+03
1.09900990099009901457e-01	1.17025129363357223156e+03
1.10891089108910892436e-01	1.15990209234913004366e+03
1.11881188118811883414e-01	1.14973032471123133291e+03
1.12871287128712874392e-01	1.13973181507805134061e+03
1.13861386138613865371e-01	1.12990250786038882325e+03
1.14851485148514856349e-01	1.12023846341825424133e+03
1.15841584158415847328e-01	1.11073585412745637768e+03
1.16831683168316838306e-01	1.10139096060726387805e+03
1.17821782178217829284e-01	1.09220016810095717119e+03
1.18811881188118820263e-01	1.08315996300162487387e+03
1.19801980198019811241e-01	1.07426692951593827274e+03
1.20792079207920802220e-01	1.06551774645916793816e+03
1.21782178217821779320e-01	1.05690918417503053206e+03
1.22772277227722770299e-01	1.04843810157452776366e+03
1.23762376237623761277e-01	1.04010144328799469804e+03
1.24752475247524752255e-01	1.03189623692521695375e+03
1.25742574257425743234e-01	1.02381959043854180891e+03
1.26732673267326734212e-01	1.01586868958432603449e+03
1.27722772277227725191e-01	1.00804079547831145192e+03
1.28712871287128716169e-01	1.00033324224070531727e+03
1.29702970297029707147e-01	9.92743434727016051511e+02
1.30693069306930698126e-01	9.85268846340957225038e+02
1.31683168316831689104e-01	9.77907016925803986851e+02
1.32673267326732680083e-01	9.70655550730927416225e+02
1.33663366336633671061e-01	9.63512114450243984720e+02
1.34653465346534662039e-01	9.56474435329681796247e+02
1.35643564356435653018e-01	9.49540299340690694407e+02
1.36633663366336643996e-01	9.42707549417154723415e+02
1.37623762376237634975e-01	9.35974083753087825244e+02
1.38613861386138625953e-01	9.29337854158726827336e+02
1.39603960396039616931e-01	9.22796864472558809211e+02
1.40594059405940607910e-01	9.16349169027227503648e+02
1.41584158415841598888e-01	9.09992871167036355473e+02
1.42574257425742589867e-01	9.03726121815217084077e+02
1.43564356435643580845e-01	8.97547118088800857549e+02
1.44554455445544571823e-01	8.91454101959546051148e+02
1.45544554455445562802e-01	8.85445358958896576951e+02
1.46534653465346553780e-01	8.79519216925515934236e+02
1.47524752475247544758e-01	8.73674044793653933993e+02
1.48514851485148535737e-01	8.67908251420901706297e+02
1.49504950495049526715e-01	8.62220284453837734873e+02
1.50495049504950517694e-01	8.56608629230212386574e+02
1.51485148514851508672e-01	8.51071807716247690223e+02
1.52475247524752471895e-01	8.45608377477891963281e+02
1.53465346534653462873e-01	8.40216930684698809273e+02
1.54455445544554453852e-01	8.34896093145217037090e+02
1.55445544554455444830e-01	8.29644523372757817015e+02
1.56435643564356435808e-01	8.24460911680429944681e+02
1.57425742574257426787e-01	8.19343979304453910117e+02
1.58415841584158417765e-01	8.14292477554734659861e+02
1.59405940594059408744e-01	8.09305186991727623536e+02
1.60396039603960399722e-01	8.04380916628729096374e+02
1.61386138613861390700e-01	7.99518503158664202601e+02
1.62376237623762381679e-01	7.94716810204554917618e+02
1.63366336633663372657e-01	7.89974727592853582792e+02
1.64356435643564363636e-01	7.85291170648858269487e+02
1.65346534653465354614e-01	7.80665079513457499161e+02
1.66336633663366345592e-01	7.76095418480497983182e+02
1.67326732673267336571e-01	7.71581175354080187390e+02
1.68316831683168327549e-01	7.67121360825077090340e+02
1.69306930693069318528e-01	7.62715007866300879869e+02
1.70297029702970309506e-01	7.58361171145629555213e+02
1.71287128712871300484e-01	7.54058926456580024933e+02
1.72277227722772263707e-01	7.49807370165649444971e+02
1.73267326732673254686e-01	7.45605618675974596954e+02
1.74257425742574245664e-01	7.41452807906719499442e+02
1.75247524752475236642e-01	7.37348092787690916339e+02
1.76237623762376227621e-01	7.33290646768690635326e+02
1.77227722772277218599e-01	7.29279661343141015095e+02
1.78217821782178209578e-01	7.25314345585491764723e+02
1.79207920792079200556e-01	7.21393925702009937595e+02
1.80198019801980191534e-01	7.17517644594477587816e+02
1.81188118811881182513e-01	7.13684761436431472248e+02
1.82178217821782173491e-01	7.09894551261512219753e+02
1.83168316831683164470e-01	7.06146304563565081480e+02
1.84158415841584155448e-01	7.02439326908096859370e+02
1.85148514851485146426e-01	6.98772938554758070495e+02
1.86138613861386137405e-01	6.95146474090494962184e+02
1.87128712871287128383e-01	6.91559282073022245640e+02
1.88118811881188119361e-01	6.88010724684315619015e+02
1.89108910891089110340e-01	6.84500177393826106709e+02
1.90099009900990101318e-01	6.81027028631068560571e+02
1.91089108910891092297e-01	6.77590679467342511089e+02
1.92079207920792083275e-01	6.74190543306280915203e+02
1.93069306930693074253e-01	6.70826045582965321046e+02
1.94059405940594065232e-01	6.67496623471336988587e+02
1.95049504950495056210e-01	6.64201725599661358501e+02
1.96039603960396047189e-01	6.60940811773796667694e+02
1.97029702970297038167e-01	6.57713352708034221905e+02
1.98019801980198029145e-01	6.54518829763265102883e+02
1.99009900990099020124e-01	6.51356734692285954225e+02
2.00000000000000011102e-01	6.48226569391990892655e+02
2.00990099009901002081e-01	6.45127845662279810313e+02
2.01980198019801993059e-01	6.42060084971448532087e+02
2.02970297029702984037e-01	6.39022818227906668653e+02
2.03960396039603975016e-01	6.36015585557982717546e+02
2.04950495049504965994e-01	6.33037936089704089682e+02
2.05940594059405956973e-01	6.30089427742300813406e+02
2.06930693069306947951e-01	6.27169627021334690653e+02
2.07920792079207938929e-01	6.24278108819246881467e+02
2.08910891089108929908e-01	6.21414456221154750892e+02
2.09900990099009920886e-01	6.18578260315802253899e+02
2.10891089108910911865e-01	6.15769120011440122653e+02
2.11881188118811902843e-01	6.12986641856560481756e+02
2.12871287128712893821e-01	6.10230439865289554291e+02
2.13861386138613884800e-01	6.07500135347344553338e+02
2.14851485148514875778e-01	6.04795356742395256333e+02
2.15841584158415866757e-01	6.02115739458736129563e+02
2.16831683168316857735e-01	5.99460925716094379823e+02
2.17821782178217848713e-01	5.96830564392515952932e+02
2.18811881188118811936e-01	5.94224310875164633217e+02
2.19801980198019802915e-01	5.91641826914953412597e+02
2.20792079207920793893e-01	5.89082780484884096950e+02
2.21782178217821784871e-01	5.86546845641985555631e+02
2.22772277227722775850e-01	5.84033702392776831402e+02
2.23762376237623766828e-01	5.81543036562122665600e+02
2.24752475247524757807e-01	5.79074539665404472544e+02
2.25742574257425748785e-01	5.76627908783908424084e+02
2.26732673267326739763e-01	5.74202846443348221328e+02
2.27722772277227730742e-01	5.71799060495422281747e+02
2.28712871287128721720e-01	5.69416264002332695782e+02
2.29702970297029712698e-01	5.67054175124172957112e+02
2.30693069306930703677e-01	5.64712517009128305290e+02
2.31683168316831694655e-01	5.62391017686364762085e+02
2.32673267326732685634e-01	5.60089409961600040333e+02
2.33663366336633676612e-01	5.57807431315213761991e+02
2.34653465346534667590e-01	5.55544823802867654194e+02
2.35643564356435658569e-01	5.53301333958573195559e+02
2.36633663366336649547e-01	5.51076712700107350429e+02
2.37623762376237640526e-01	5.48870715236736486986e+02
2.38613861386138631504e-01	5.46683100979175833345e+02
2.39603960396039622482e-01	5.44513633451750592940e+02
2.40594059405940613461e-01	5.42362080206638211166e+02
2.41584158415841604439e-01	5.40228212740212370591e+02
2.42574257425742595418e-01	5.38111806411367069813e+02
2.43564356435643558640e-01	5.36012640361819762802e+02
2.44554455445544549619e-01	5.33930497438288057310e+02
2.45544554455445540597e-01	5.31865164116545997786e+02
2.46534653465346531576e-01	5.29816430427263640013e+02
2.47524752475247522554e-01	5.27784089883614456085e+02
2.48514851485148513532e-01	5.25767939410575422698e+02
2.49504950495049504511e-01	5.23767779275906832481e+02
2.50495049504950495489e-01	5.21783413022743275178e+02
2.51485148514851486468e-01	5.19814647403759295230e+02
2.52475247524752477446e-01	5.17861292316878348174e+02
2.53465346534653468424e-01	5.15923160742466734519e+02
2.54455445544554459403e-01	5.14000068682001824527e+02
2.55445544554455450381e-01	5.12091835098138744797e+02
2.56435643564356441360e-01	5.10198281856172172866e+02
2.57425742574257432338e-01	5.08319233666839636498e+02
2.58415841584158423316e-01	5.06454518030438066489e+02
2.59405940594059414295e-01	5.04603965182222907515e+02
2.60396039603960405273e-01	5.02767408039042891232e+02
2.61386138613861396252e-01	5.00944682147193759647e+02
2.62376237623762387230e-01	4.99135625631453876849e+02
2.63366336633663378208e-01	4.97340079145275012706e+02
2.64356435643564369187e-01	4.95557885822085722793e+02
2.65346534653465360165e-01	4.93788891227706528753e+02
2.66336633663366351144e-01	4.92032943313815394504e+02
2.67326732673267342122e-01	4.90289892372462531966e+02
2.68316831683168333100e-01	4.88559590991595143805e+02
2.69306930693069324079e-01	4.86841894011573060652e+02
2.70297029702970315057e-01	4.85136658482648726931e+02
2.71287128712871306035e-01	4.83443743623381124053e+02
2.72277227722772297014e-01	4.81763010779973797071e+02
2.73267326732673287992e-01	4.80094323386499127082e+02
2.74257425742574278971e-01	4.78437546926003903991e+02
2.75247524752475269949e-01	4.76792548892452089149e+02
2.76237623762376260927e-01	4.75159198753503574153e+02
2.77227722772277251906e-01	4.73537367914106937405e+02
2.78217821782178242884e-01	4.71926929680863679550e+02
2.79207920792079233863e-01	4.70327759227183605617e+02
2.80198019801980224841e-01	4.68739733559176670497e+02
2.81188118811881215819e-01	4.67162731482274807604e+02
2.82178217821782206798e-01	4.65596633568585161811e+02
2.83168316831683197776e-01	4.64041322124921805425e+02
2.84158415841584188755e-01	4.62496681161526225878e+02
2.85148514851485179733e-01	4.60962596361452199289e+02
2.86138613861386170711e-01	4.59438955050604420194e+02
2.87128712871287161690e-01	4.57925646168392972868e+02
2.88118811881188152668e-01	4.56422560239022629958e+02
2.89108910891089143647e-01	4.54929589343374630062e+02
2.90099009900990134625e-01	4.53446627091477637350e+02
2.91089108910891125603e-01	4.51973568595562426253e+02
2.92079207920792116582e-01	4.50510310443666696756e+02
2.93069306930693107560e-01	4.49056750673786439165e+02
2.94059405940594098539e-01	4.47612788748574814690e+02
2.95049504950495089517e-01	4.46178325530546374011e+02
2.96039603960396080495e-01	4.44753263257811170206e+02
2.97029702970297071474e-01	4.43337505520278398308e+02
2.98019801980198062452e-01	4.41930957236380891118e+02
2.99009900990099053431e-01	4.40533524630244471609e+02
3.00000000000000044409e-01	4.39145115209338428031e+02
3.00990099009901035387e-01	4.37765637742578348934e+02
3.01980198019802026366e-01	4.36395002238857671273e+02
3.02970297029703017344e-01	4.35033119926031304203e+02
3.03960396039604008322e-01	4.33679903230312675078e+02
3.04950495049504999301e-01	4.32335265756074988985e+02
3.05940594059405990279e-01	4.30999122266073470655e+02
3.06930693069306925747e-01	4.29671388662050333096e+02
3.07920792079207916725e-01	4.28351981965729407875e+02
3.08910891089108907703e-01	4.27040820300178779689e+02
3.09900990099009898682e-01	4.25737822871561093052e+02
3.10891089108910889660e-01	4.24442909951221963638e+02
3.11881188118811880639e-01	4.23156002858144063339e+02
3.12871287128712871617e-01	4.21877023941735160406e+02
3.13861386138613862595e-01	4.20605896564963984474e+02
3.14851485148514853574e-01	4.19342545087815267379e+02
3.15841584158415844552e-01	4.18086894851065778766e+02
3.16831683168316835530e-01	4.16838872160384596555e+02
3.17821782178217826509e-01	4.15598404270728394749e+02
3.18811881188118817487e-01	4.14365419371041866725e+02
3.19801980198019808466e-01	4.13139846569259759690e+02
3.20792079207920799444e-01	4.11921615877575902687e+02
3.21782178217821790422e-01	4.10710658198023907062e+02
3.22772277227722781401e-01	4.09506905308294847146e+02
3.23762376237623772379e-01	4.08310289847858371104e+02
3.24752475247524763358e-01	4.07120745304329886949e+02
3.25742574257425754336e-01	4.05938206000092179693e+02
3.26732673267326745314e-01	4.04762607079177712421e+02
3.27722772277227736293e-01	4.03593884494394160356e+02
3.28712871287128727271e-01	4.02431974994686754599e+02
3.29702970297029718250e-01	4.01276816112744199927e+02
3.30693069306930709228e-01	4.00128346152828669346e+02
3.31683168316831700206e-01	3.98986504178832376510e+02
3.32673267326732691185e-01	3.97851230002556690124e+02
3.33663366336633682163e-01	3.96722464172211971345e+02
3.34653465346534673142e-01	3.95600147961120910622e+02
3.35643564356435664120e-01	3.94484223356628831425e+02
3.36633663366336655098e-01	3.93374633049228179971e+02
3.37623762376237590566e-01	3.92271320421869916117e+02
3.38613861386138581544e-01	3.91174229539470502459e+02
3.39603960396039572522e-01	3.90083305138618413821e+02
3.40594059405940563501e-01	3.88998492617451915976e+02
3.41584158415841554479e-01	3.87919738025737842690e+02
3.42574257425742545458e-01	3.86846988055111864924e+02
3.43564356435643536436e-01	3.85780190029501284243e+02
3.44554455445544527414e-01	3.84719291895721141827e+02
3.45544554455445518393e-01	3.83664242214234320727e+02
3.46534653465346509371e-01	3.82614990150077289854e+02
3.47524752475247500350e-01	3.81571485463943758987e+02
3.48514851485148491328e-01	3.80533678503436192386e+02
3.49504950495049482306e-01	3.79501520194453746626e+02
3.50495049504950473285e-01	3.78474962032751477636e+02
3.51485148514851464263e-01	3.77453956075635744583e+02
3.52475247524752455242e-01	3.76438454933803541280e+02
3.53465346534653446220e-01	3.75428411763332917417e+02
3.54455445544554437198e-01	3.74423780257801297466e+02
3.55445544554455428177e-01	3.73424514640559152667e+02
3.56435643564356419155e-01	3.72430569657107241710e+02
3.57425742574257410133e-01	3.71441900567642335318e+02
3.58415841584158401112e-01	3.70458463139693208177e+02
3.59405940594059392090e-01	3.69480213640920908347e+02
3.60396039603960383069e-01	3.68507108832002586496e+02
3.61386138613861374047e-01	3.67539105959673463531e+02
3.62376237623762365025e-01	3.66576162749863101453e+02
3.63366336633663356004e-01	3.65618237400952864391e+02
3.64356435643564346982e-01	3.64665288577160197292e+02
3.65346534653465337961e-01	3.63717275402013342500e+02
3.66336633663366328939e-01	3.62774157451954238240e+02
3.67326732673267319917e-01	3.61835894750036686673e+02
3.68316831683168310896e-01	3.60902447759738208788e+02
3.69306930693069301874e-01	3.59973777378868987853e+02
3.70297029702970292853e-01	3.59049844933587735341e+02
3.71287128712871283831e-01	3.58130612172511632707e+02
3.72277227722772274809e-01	3.57216041260921087996e+02
3.73267326732673265788e-01	3.56306094775077951908e+02
3.74257425742574256766e-01	3.55400735696608933267e+02
3.75247524752475247745e-01	3.54499927407009352009e+02
3.76237623762376238723e-01	3.53603633682211238920e+02
3.77227722772277229701e-01	3.52711818687267793848e+02
3.78217821782178220680e-01	3.51824446971095937897e+02
3.79207920792079211658e-01	3.50941483461324708060e+02
3.80198019801980202637e-01	3.50062893459214876657e+02
3.81188118811881193615e-01	3.49188642634672191889e+02
3.82178217821782184593e-01	3.48318697021331161068e+02
3.83168316831683175572e-01	3.47453023011718528323e+02
3.84158415841584166550e-01	3.46591587352500596353e+02
3.85148514851485157529e-01	3.45734357139799385550e+02
3.86138613861386148507e-01	3.44881299814588373920e+02
3.87128712871287139485e-01	3.44032383158160314451e+02
3.88118811881188130464e-01	3.43187575287661218226e+02
3.89108910891089121442e-01	3.42346844651708124729e+02
3.90099009900990112421e-01	3.41510160026057121740e+02
3.91089108910891103399e-01	3.40677490509360950455e+02
3.92079207920792094377e-01	3.39848805518971971651e+02
3.93069306930693085356e-01	3.39024074786827952721e+02
3.94059405940594076334e-01	3.38203268355388615873e+02
3.95049504950495067312e-01	3.37386356573650687096e+02
3.96039603960396058291e-01	3.36573310093204156601e+02
3.97029702970297049269e-01	3.35764099864372326465e+02
3.98019801980198040248e-01	3.34958697132388238060e+02
3.99009900990099031226e-01	3.34157073433655057215e+02
4.00000000000000022204e-01	3.33359200592038064315e+02
4.00990099009901013183e-01	3.32565050715232928269e+02
4.01980198019802004161e-01	3.31774596191185310090e+02
4.02970297029702995140e-01	3.30987809684552132694e+02
4.03960396039603986118e-01	3.30204664133234416568e+02
4.04950495049504977096e-01	3.29425132744952861685e+02
4.05940594059405968075e-01	3.28649188993874133757e+02
4.06930693069306959053e-01	3.27876806617297404500e+02
4.07920792079207950032e-01	3.27107959612378010661e+02
4.08910891089108941010e-01	3.26342622232907103808e+02
4.09900990099009931988e-01	3.25580768986142572885e+02
4.10891089108910922967e-01	3.24822374629678563451e+02
4.11881188118811913945e-01	3.24067414168371044525e+02
4.12871287128712904924e-01	3.23315862851298390979e+02
4.13861386138613895902e-01	3.22567696168780685184e+02
4.14851485148514886880e-01	3.21822889849426871933e+02
4.15841584158415877859e-01	3.21081419857240859983e+02
4.16831683168316868837e-01	3.20343262388756954806e+02
4.17821782178217859816e-01	3.19608393870226848321e+02
4.18811881188118850794e-01	3.18876790954844750559e+02
4.19801980198019841772e-01	3.18148430520006456845e+02
4.20792079207920832751e-01	3.17423289664624348916e+02
4.21782178217821823729e-01	3.16701345706459107987e+02
4.22772277227722814708e-01	3.15982576179512250292e+02
4.23762376237623805686e-01	3.15266958831437136723e+02
4.24752475247524796664e-01	3.14554471621005973248e+02
4.25742574257425787643e-01	3.13845092715593352750e+02
4.26732673267326778621e-01	3.13138800488711069647e+02
4.27722772277227769600e-01	3.12435573517573061508e+02
4.28712871287128760578e-01	3.11735390580693888296e+02
4.29702970297029751556e-01	3.11038230655519214451e+02
4.30693069306930742535e-01	3.10344072916097786674e+02
4.31683168316831733513e-01	3.09652896730778707024e+02
4.32673267326732724491e-01	3.08964681659945597403e+02
4.33663366336633715470e-01	3.08279407453777992032e+02
4.34653465346534706448e-01	3.07597054050048313911e+02
4.35643564356435697427e-01	3.06917601571952900485e+02
4.36633663366336688405e-01	3.06241030325959172842e+02
4.37623762376237679383e-01	3.05567320799704532419e+02
4.38613861386138670362e-01	3.04896453659903272637e+02
4.39603960396039661340e-01	3.04228409750294474634e+02
4.40594059405940652319e-01	3.03563170089615937286e+02
4.41584158415841643297e-01	3.02900715869603914143e+02
4.42574257425742634275e-01	3.02241028453027013256e+02
4.43564356435643625254e-01	3.01584089371736467911e+02
4.44554455445544616232e-01	3.00929880324750683940e+02
4.45544554455445607211e-01	3.00278383176365139207e+02
4.46534653465346598189e-01	2.99629579954286668908e+02
4.47524752475247589167e-01	2.98983452847791966178e+02
4.48514851485148469123e-01	2.98339984205912514881e+02
4.49504950495049460102e-01	2.97699156535646636712e+02
4.50495049504950451080e-01	2.97060952500190694536e+02
4.51485148514851442059e-01	2.96425354917199001648e+02
4.52475247524752433037e-01	2.95792346757057828199e+02
4.53465346534653424015e-01	2.95161911141201187547e+02
4.54455445544554414994e-01	2.94534031340424917289e+02
4.55445544554455405972e-01	2.93908690773246121353e+02
4.56435643564356396951e-01	2.93285873004263919483e+02
4.57425742574257387929e-01	2.92665561742560441871e+02
4.58415841584158378907e-01	2.92047740840111373473e+02
4.59405940594059369886e-01	2.91432394290220202038e+02
4.60396039603960360864e-01	2.90819506225971849744e+02
4.61386138613861351843e-01	2.90209060918714669697e+02
4.62376237623762342821e-01	2.89601042776547046742e+02
4.63366336633663333799e-01	2.88995436342843220245e+02
