 L=7, code time=0.076389 (in min) 
"mu" 	 	 "||A||^2" 
0.00000000010000000000	393.67051765989918976629
0.00000000020235896477	393.67051765989918976629
0.00000000040949150624	393.67051765989918976629
0.00000000082864277285	393.67051765989907607945
0.00000000167683293681	393.67051765989850764527
0.00000000339322177190	393.67051765989651812561
0.00000000686648845004	393.67051765988833267329
0.00000001389495494373	393.67051765985439715223
0.00000002811768697974	393.67051765971535814970
0.00000005689866029018	393.67051765914635552690
0.00000011513953993264	393.67051765681611641412
0.00000023299518105154	393.67051764727432328073
0.00000047148663634574	393.67051760820055505974
0.00000095409547634999	393.67051744819684699905
0.00000193069772888325	393.67051679299487432218
0.00000390693993705462	393.67051410999835070470
0.00000790604321090770	393.67050312335629769223
0.00001599858719606057	393.67045813400136466953
0.00003237457542817647	393.67027390660109631426
0.00006551285568595509	393.66951951414762334025
0.00013257113655901109	393.66643039320609887000
0.00026826957952797272	393.65378157855946028576
0.00054286754393238594	393.60200039525250303996
0.00109854114198755948	393.39020601796204346101
0.00222299648252619574	392.52701732095295028557
0.00449843266896944420	389.05960243579232837874
0.00910298177991522746	375.90383325685166937546
0.01842069969326716461	335.11007309450667435158
0.03727593720314938130	258.93315567785600705975
0.07543120063354606664	177.97764676071818712444
0.15264179671752364786	108.95236173599299434045
0.30888435964774846321	62.89225757790351423182
0.62505519252739760727	31.43251750597245575136
1.26485521685529578306	13.10777253835664524217
2.55954792269953301798	5.46107779015112448917
5.17947467923122317757	2.56977696731001348240
10.48113134154687386967	1.11305977448778903316
21.20950887920192684533	0.34649154764611084234
42.91934260128778078069	0.06710497174565943634
86.85113737513520959510	0.00750479524834893417
175.75106248547965037687	0.00056669809816116954
355.64803062231356989287	0.00003617613429204711
719.68567300115284979256	0.00000219538733506441
1456.34847750124436061014	0.00000013149083646915
2947.05170255180973981624	0.00000000784991198401
5963.62331659463688993128	0.00000000046826013948
12067.92640639331330021378	0.00000000002792703304
24420.53094548654917161912	0.00000000000166548872
49417.13361323838034877554	0.00000000000009932385
100000.00000000000000000000	0.00000000000000592331
