L=6, code time=0.001812 (in min) 
wij_min=9.53783318914602773475e-02, wij_max=6.05007524585565619191e+01 
"mu" 	 	 "||A||^2" 
1.00000000000000002082e-02	1.90991684014671231351e-02
1.03532184329566210451e-02	1.90991526694223000271e-02
1.07189131920512759760e-02	1.90991358065347380246e-02
1.10975249641207217299e-02	1.90991177315296967176e-02
1.14895100018730916130e-02	1.90990983572929158563e-02
1.18953406737031947005e-02	1.90990775904513326866e-02
1.23155060329282559778e-02	1.90990553309237157120e-02
1.27505124071301285255e-02	1.90990314714390221895e-02
1.32008840083141804761e-02	1.90990058970203734068e-02
1.36671635646200655134e-02	1.90989784844318929991e-02
1.41499129743457591896e-02	1.90989491015860109180e-02
1.46497139830728557303e-02	1.90989176069082874920e-02
1.51671688847092259872e-02	1.90988838486567252817e-02
1.57029012472937740119e-02	1.90988476641923456134e-02
1.62575566644379415626e-02	1.90988088791975985092e-02
1.68318035333095659956e-02	1.90987673068388520703e-02
1.74263338600964996783e-02	1.90987227468688222642e-02
1.80418640939207161611e-02	1.90986749846650850915e-02
1.86791359902078284161e-02	1.90986237901997202293e-02
1.93389175045523102614e-02	1.90985689169352081118e-02
2.00220037181558438433e-02	1.90985101006418446501e-02
2.07292177959537103626e-02	1.90984470581303661385e-02
2.14614119785840364030e-02	1.90983794858943997652e-02
2.22194686093952382955e-02	1.90983070586560159387e-02
2.30043011977291815551e-02	1.90982294278077349703e-02
2.38168555197615823549e-02	1.90981462197434732897e-02
2.46581107582260275479e-02	1.90980570340707339616e-02
2.55290806823951672844e-02	1.90979614416958397294e-02
2.64308148697410573436e-02	1.90978589827728618966e-02
2.73643999707467062976e-02	1.90977491645071204007e-02
2.83309610183932400473e-02	1.90976314588028293906e-02
2.93316627839004390177e-02	1.90975052997441017977e-02
3.03677111803545736468e-02	1.90973700808975688226e-02
3.14403547159149976409e-02	1.90972251524244018839e-02
3.25508859983505843827e-02	1.90970698179883519030e-02
3.37006432927192817184e-02	1.90969033314457060924e-02
3.48910121340677351065e-02	1.90967248933022401558e-02
3.61234269970943031036e-02	1.90965336469208664394e-02
3.73993730247879768713e-02	1.90963286744632795844e-02
3.87203878181255484181e-02	1.90961089925470103856e-02
4.00880632889846488798e-02	1.90958735475988197750e-02
4.15040475785047671686e-02	1.90956212108836717589e-02
4.29700470432083925232e-02	1.90953507731875318787e-02
4.44878283112758524109e-02	1.90950609391306105889e-02
4.60592204114510586632e-02	1.90947503210864913403e-02
4.76861169771446921639e-02	1.90944174326809594511e-02
4.93704785283900354775e-02	1.90940606818425992475e-02
5.11143348344016562601e-02	1.90936783633762138801e-02
5.29197873595844206496e-02	1.90932686510275340108e-02
5.47890117959394240543e-02	1.90928295890067552254e-02
5.67242606849197791852e-02	1.90923590829360188825e-02
5.87278661318948319581e-02	1.90918548901846049648e-02
6.08022426164942092486e-02	1.90913146095532774982e-02
6.29498899022188779240e-02	1.90907356702673634830e-02
6.51733960488242308751e-02	1.90901153202366023753e-02
6.74754405311069338502e-02	1.90894506135370865818e-02
6.98587974678524931127e-02	1.90887383970693678970e-02
7.23263389648353405281e-02	1.90879752963444768166e-02
7.48810385759002272721e-02	1.90871577003478426482e-02
7.75259748862946046488e-02	1.90862817454293780262e-02
8.02643352225717449100e-02	1.90853432981662185508e-02
8.30994194935339575148e-02	1.90843379371433696789e-02
8.60346441668450034879e-02	1.90832609335960246000e-02
8.90735463861044018952e-02	1.90821072308564633480e-02
9.22197882333432722435e-02	1.90808714225479750248e-02
9.54771611420805604853e-02	1.90795477294677974511e-02
9.88495904662558683151e-02	1.90781299751017693889e-02
1.02341140210545328282e-01	1.90766115597140531457e-02
1.05956017927761589337e-01	1.90749854329574745904e-02
1.09698579789238345739e-01	1.90732440649522619336e-02
1.13573335834310520931e-01	1.90713794157851522504e-02
1.17584955405215629831e-01	1.90693829033853623489e-02
1.21738272773966135776e-01	1.90672453697409496898e-02
1.26038292967972753722e-01	1.90649570454266246988e-02
1.30490197801440221959e-01	1.90625075124246021185e-02
1.35099352119802645911e-01	1.90598856652322186378e-02
1.39871310264723797134e-01	1.90570796702649765397e-02
1.44811822767453385330e-01	1.90540769235813117755e-02
1.49926843278604560172e-01	1.90508640069769197289e-02
1.55222535742704725870e-01	1.90474266425205603082e-02
1.60705281826163837167e-01	1.90437496456330908334e-02
1.66381688607612820974e-01	1.90398168768446153509e-02
1.72258596539878655607e-01	1.90356111924037361971e-02
1.78343087693190932574e-01	1.90311143939577952222e-02
1.84642494289554343068e-01	1.90263071775735696789e-02
1.91164407538570169098e-01	1.90211690824266255184e-02
1.97916686785355622202e-01	1.90156784395523296982e-02
2.04907468981584711676e-01	1.90098123211259288634e-02
2.12145178491062985637e-01	1.90035464908211403079e-02
2.19638537241654580034e-01	1.89968553558884020727e-02
2.27396575235792763880e-01	1.89897119216953201570e-02
2.35428641432241653186e-01	1.89820877495827204651e-02
2.43744415012222048755e-01	1.89739529190109494639e-02
2.52353917043476594362e-01	1.89652759951019315998e-02
2.61267522556332787431e-01	1.89560240028228133013e-02
2.70495973046313453736e-01	1.89461624092057204227e-02
2.80050389418363077088e-01	1.89356551151547668199e-02
2.89942285388287646075e-01	1.89244644585525867431e-02
3.00183581357558904035e-01	1.89125512305434347049e-02
3.10786618778201240154e-01	1.88998747070343066368e-02
3.21764175025073539960e-01	1.88863926976146345726e-02
3.33129478793467326270e-01	1.88720616142451780295e-02
3.44896226040575792915e-01	1.88568365622001875292e-02
3.57078596490046251688e-01	1.88406714558560402228e-02
3.69691270719502640407e-01	1.88235191619964062348e-02
3.82749447851631119377e-01	1.88053316733370716463e-02
3.96268863870147813877e-01	1.87860603149508156862e-02
4.10265810582719270272e-01	1.87656559861830163349e-02
4.24757155253689844265e-01	1.87440694404742459744e-02
4.39760360930271876345e-01	1.87212516052355400220e-02
4.55293507486694781772e-01	1.86971539435359553061e-02
4.71375313411672380859e-01	1.86717288588475506528e-02
4.88025158365443134656e-01	1.86449301434330159954e-02
5.05263106533567984968e-01	1.86167134701430772581e-02
5.23109930805626066608e-01	1.85870369264053286740e-02
5.41587137807947094359e-01	1.85558615880232133377e-02
5.60716993820545850369e-01	1.85231521290667479340e-02
5.80522551609489845248e-01	1.84888774626279887847e-02
6.01027678207038174030e-01	1.84530114055502410253e-02
6.22257083673022792780e-01	1.84155333584461976260e-02
6.44236350872137042423e-01	1.83764289904317541791e-02
6.66991966303012162598e-01	1.83356909160713905937e-02
6.90551352016232744546e-01	1.82933193501181555474e-02
7.14942898659757686275e-01	1.82493227238155163172e-02
7.40195999691564132661e-01	1.82037182448985916661e-02
7.66341086800745419083e-01	1.81565323820871774019e-02
7.93409666579749206505e-01	1.81078012539125747515e-02
8.21434358491942573366e-01	1.80575709012731899783e-02
8.50448934180267679395e-01	1.80058974232802267157e-02
8.80488358164346007761e-01	1.79528469568321601135e-02
9.11588829975081837986e-01	1.78984954820278450993e-02
9.43787827777538113061e-01	1.78429284380492644835e-02
9.77124153534649653174e-01	1.77862401375381805335e-02
1.01163797976620695174e+00	1.77285329717386495874e-02
1.04737089795944982029e+00	1.76699164037119500759e-02
1.08436596868960966056e+00	1.76105057526340126606e-02
1.12266777351081348257e+00	1.75504207783876778337e-02
1.16232246867985189454e+00	1.74897840821402542066e-02
1.20337784077758924717e+00	1.74287193450877453405e-02
1.24588336429500823321e+00	1.73673494337531070242e-02
1.28989026125330807915e+00	1.73057944058329186976e-02
1.33545156292989886104e+00	1.72441694552819928254e-02
1.38262217376465490482e+00	1.71825828388195399332e-02
1.43145893752347852512e+00	1.71211338280847884252e-02
1.48202070579885858415e+00	1.70599107320849180391e-02
1.53436840893001158470e+00	1.69989890332621282343e-02
1.58856512942805272459e+00	1.69384296774554195253e-02
1.64467617799466281348e+00	1.68782775533413940960e-02
1.70276917222589951884e+00	1.68185601908030120388e-02
1.76291411809594800175e+00	1.67592867003796795744e-02
1.82518349431904236546e+00	1.67004469678561397183e-02
1.88965233969120971480e+00	1.66420111095576250815e-02
1.95639834351706287663e+00	1.65839291854659870440e-02
2.02550193923066634838e+00	1.65261311592777050683e-02
2.09704640132323261170e+00	1.64685270873764083577e-02
2.17111794569450289316e+00	1.64110075127151845698e-02
2.24780583354872520729e+00	1.63534440350404236542e-02
2.32720247896040710600e+00	1.62956900258907459722e-02
2.40940356023952428899e+00	1.62375814554239321363e-02
2.49450813523031644792e+00	1.61789377983200081956e-02
2.58261876068267470785e+00	1.61195629876566895455e-02
2.67384161583994650613e+00	1.60592463885603636831e-02
2.76828663039206368524e+00	1.59977637673648712124e-02
2.86606761694825040721e+00	1.59348782366942817723e-02
2.96730240818886947807e+00	1.58703411620559030337e-02
3.07211299886175615015e+00	1.58038930209253719594e-02
3.18062569279411899714e+00	1.57352642106981799319e-02
3.29297125509714794234e+00	1.56641758070754991139e-02
3.40928506974681111430e+00	1.55903402792965731227e-02
3.52970730273065003146e+00	1.55134621730166552545e-02
3.65438307095725445350e+00	1.54332387754935670965e-02
3.78346261713192877352e+00	1.53493607810521581064e-02
3.91710149080925651432e+00	1.52615129775439152537e-02
4.05546073584082744645e+00	1.51693749767183513888e-02
4.19870708444391027570e+00	1.50726220130998518620e-02
4.34701315812502198099e+00	1.49709258371403287902e-02
4.50055767570049791715e+00	1.48639557291136894385e-02
4.65952566866467776663e+00	1.47513796604376405674e-02
4.82410870416536852190e+00	1.46328656288420774767e-02
4.99450511585513989843e+00	1.45080831930220061077e-02
5.17092024289675578075e+00	1.43767052310695593598e-02
5.35356667741072467237e+00	1.42384099450068093984e-02
5.54266452066310133517e+00	1.40928831310586887005e-02
5.73844164830239300557e+00	1.39398207318186858478e-02
5.94113398496503375412e+00	1.37789316820704273864e-02
6.15098578858049815921e+00	1.36099410546366567099e-02
6.36824994471858651934e+00	1.34325935061438053036e-02
6.59318827133354190551e+00	1.32466570149440843879e-02
6.82607183427238606299e+00	1.30519268945862645936e-02
7.06718127392749106974e+00	1.28482300561722564969e-02
7.31680714342719262788e+00	1.26354294817328082629e-02
7.57525025877191282575e+00	1.24134288585270296384e-02
7.84282206133768156064e+00	1.21821773111187563882e-02
8.11984499318400843038e+00	1.19416741545036904359e-02
8.40665288561832468872e+00	1.16919735778495022249e-02
8.70359136148515766251e+00	1.14331891550640343813e-02
9.01101825166501946285e+00	1.11654980660245758267e-02
9.32930402628468691262e+00	1.08891449015756126839e-02
9.65883224115869865045e+00	1.06044449170974650065e-02
1.00000000000000000000e+01	1.03117865943746517959e-02
