 L=10, code time=0.373746 (in min) 
wij_min=6.03912535979134190711e-07, wij_max=3.11411096892098058220e+01 
"mu" 	 	 "||A||^2" 
1.00000000000000003643e-10	4.07183848252464225516e+06
1.18953406737032067258e-10	4.07183848252244200557e+06
1.41499129743457873129e-10	4.07183848251932859421e+06
1.68318035333095502864e-10	4.07183848251492111012e+06
2.00220037181558437944e-10	4.07183848250868776813e+06
2.38168555197616074720e-10	4.07183848249986534938e+06
2.83309610183931825768e-10	4.07183848248738236725e+06
3.37006432927192451466e-10	4.07183848246971610934e+06
4.00880632889846438503e-10	4.07183848244472360238e+06
4.76861169771447397447e-10	4.07183848240935662761e+06
5.67242606849198883471e-10	4.07183848235931200907e+06
6.74754405311068558404e-10	4.07183848228850262240e+06
8.02643352225717377815e-10	4.07183848218830395490e+06
9.54771611420806508922e-10	4.07183848204652452841e+06
1.13573335834310288916e-09	4.07183848184591066092e+06
1.35099352119802519251e-09	4.07183848156204121187e+06
1.60705281826163847742e-09	4.07183848116037202999e+06
1.91164407538570385981e-09	4.07183848059201007709e+06
2.27396575235793215061e-09	4.07183847978778323159e+06
2.70495973046313136377e-09	4.07183847864980623126e+06
3.21764175025073519961e-09	4.07183847703958582133e+06
3.82749447851631517473e-09	4.07183847476113075390e+06
4.55293507486693877322e-09	4.07183847153714299202e+06
5.41587137807946464627e-09	4.07183846697522932664e+06
6.44236350872137046605e-09	4.07183846052015665919e+06
7.66341086800746217065e-09	4.07183845138628734276e+06
9.11588829975083781184e-09	4.07183843846193654463e+06
1.08436596868960860500e-08	4.07183842017410043627e+06
1.28989026125330806031e-08	4.07183839429696649313e+06
1.53436840893001327414e-08	4.07183835768105043098e+06
1.82518349431904239544e-08	4.07183830586984660476e+06
2.17111794569450085411e-08	4.07183823255744436756e+06
2.58261876068267474279e-08	4.07183812882103864104e+06
3.07211299886175937724e-08	4.07183798203493375331e+06
3.65438307095725478011e-08	4.07183777433389239013e+06
4.34701315812501717294e-08	4.07183748043875535950e+06
5.17092024289675556895e-08	4.07183706457974761724e+06
6.15098578858050436024e-08	4.07183647614299505949e+06
7.31680714342719159342e-08	4.07183564351035607979e+06
8.70359136148514768755e-08	4.07183446534289373085e+06
1.03532184329566155945e-07	4.07183279824715713039e+06
1.23155060329282628142e-07	4.07183043932314263657e+06
1.46497139830728482315e-07	4.07182710147007228807e+06
1.74263338600964726368e-07	4.07182237844479037449e+06
2.07292177959536982755e-07	4.07181569542068615556e+06
2.46581107582260368077e-07	4.07180623903087154031e+06
2.93316627839004215282e-07	4.07179285838394518942e+06
3.48910121340676632595e-07	4.07177392500987090170e+06
4.15040475785047253506e-07	4.07174713470032997429e+06
4.93704785283900377408e-07	4.07170922714604530483e+06
5.87278661318947677360e-07	4.07165558928885217756e+06
6.98587974678523438553e-07	4.07157969419426005334e+06
8.30994194935338645275e-07	4.07147230731334071606e+06
9.88495904662558603124e-07	4.07132036385450419039e+06
1.17584955405215584945e-06	4.07110538128516217694e+06
1.39871310264723580700e-06	4.07080121505720354617e+06
1.66381688607612741576e-06	4.07037088702493533492e+06
1.97916686785355745422e-06	4.06976210578129440546e+06
2.35428641432241558251e-06	4.06890094416866544634e+06
2.80050389418362536830e-06	4.06768292539573647082e+06
3.33129478793466996157e-06	4.06596047468461329117e+06
3.96268863870147865241e-06	4.06352529267762321979e+06
4.71375313411671956475e-06	4.06008367168053425848e+06
5.60716993820544644058e-06	4.05522208154694223776e+06
6.66991966303011471555e-06	4.04835949355813255534e+06
7.93409666579749174359e-06	4.03868193814137205482e+06
9.43787827777537116788e-06	4.02505388448085309938e+06
1.12266777351081134160e-05	4.00590063730731932446e+06
1.33545156292989743022e-05	3.97905705023374455050e+06
1.58856512942805287736e-05	3.94158240193499485031e+06
1.88965233969120774546e-05	3.88955279727607918903e+06
2.24780583354872084143e-05	3.81786663774426281452e+06
2.67384161583994387596e-05	3.72014312455004919320e+06
3.18062569279411891474e-05	3.58886429405839927495e+06
3.78346261713192539211e-05	3.41600033239032467827e+06
4.50055767570048807541e-05	3.19441996280674729496e+06
5.35356667741071883264e-05	2.92030424888846185058e+06
6.36824994471858567540e-05	2.59636537847416009754e+06
7.57525025877190441017e-05	2.23481562056318996474e+06
9.01101825166500034186e-05	1.85808589956658706069e+06
1.07189131920512647003e-04	1.49533287844915245660e+06
1.27505124071301280918e-04	1.17484849759618472308e+06
1.51671688847092111336e-04	9.15738310184771544300e+05
1.80418640939206798403e-04	7.23517693055716343224e+05
2.14614119785840143937e-04	5.91648958084471989423e+05
2.55290806823951646823e-04	5.06940152493087400217e+05
3.03677111803545452407e-04	4.55081043364885204937e+05
3.61234269970942293779e-04	4.24012968242303293664e+05
4.29700470432083515403e-04	4.04978366781627060845e+05
5.11143348344016536580e-04	3.92177855396482744254e+05
6.08022426164941498343e-04	3.81956977005706110504e+05
7.23263389648351917756e-04	3.72043353052754711825e+05
8.60346441668449106802e-04	3.61016119964398909360e+05
1.02341140210545277975e-03	3.48014643624158343300e+05
1.21738272773965947558e-03	3.32625886510946555063e+05
1.44811822767453002823e-03	3.14862415870287804864e+05
1.72258596539878391929e-03	2.95131168046993494499e+05
2.04907468981584605858e-03	2.74114681827474327292e+05
2.43744415012221672320e-03	2.52561704542789055267e+05
2.89942285388286938308e-03	2.31075582002767740050e+05
3.44896226040575281171e-03	2.10009810975520376815e+05
4.10265810582719023941e-03	1.89502767231267469469e+05
4.88025158365442378317e-03	1.69592593146729079308e+05
5.80522551609488363794e-03	1.50332324537580978358e+05
6.90551352016231627384e-03	1.31857419493252557004e+05
8.21434358491942261116e-03	1.14389615722447619191e+05
9.77124153534648237640e-03	9.81851981634346593637e+04
1.16232246867984945204e-02	8.34611321555141475983e+04
1.38262217376465355173e-02	7.03417937804851535475e+04
1.64467617799466288286e-02	5.88481593347884263494e+04
1.95639834351705663162e-02	4.89197658780612327973e+04
2.32720247896040267899e-02	4.04457063553584521287e+04
2.76828663039206078478e-02	3.32886649278163968120e+04
3.29297125509714835867e-02	2.72996933380970185681e+04
3.91710149080926051113e-02	2.23278210789974800718e+04
4.65952566866466785789e-02	1.82274807792015089944e+04
5.54266452066309589508e-02	1.48641423743111390650e+04
6.59318827133354157244e-02	1.21176996666782324610e+04
7.84282206133764953071e-02	9.88357043148236880370e+03
9.32930402628465715864e-02	8.07209336301269649994e+03
1.10975249641206988316e-01	6.60710132707992124779e+03
1.32008840083141676391e-01	5.42435429399461736466e+03
1.57029012472937740119e-01	4.47007427235081195249e+03
1.86791359902077708233e-01	3.69955380089625214168e+03
2.22194686093951931927e-01	3.07582949316602980616e+03
2.64308148697410261185e-01	2.56851466141879018323e+03
3.14403547159148699652e-01	2.15286309623165016092e+03
3.73993730247878630735e-01	1.80901439452571139554e+03
4.44878283112757622053e-01	1.52131317484154214981e+03
5.29197873595843693018e-01	1.27765887163110687652e+03
6.29498899022188806995e-01	1.06892299334757376528e+03
7.48810385758999941253e-01	8.88461249451775643138e+02
8.90735463861042187084e-01	7.31675504356804822237e+02
1.05956017927761481090e+00	5.95546796445552786281e+02
1.26038292967972220815e+00	4.78112543638885824748e+02
1.49926843278604104981e+00	3.77948783473655169018e+02
1.78343087693190560650e+00	2.93761587396635036384e+02
2.12145178491062758042e+00	2.24160378073317417602e+02
2.52353917043476583260e+00	1.67612216791617498757e+02
3.00183581357558004754e+00	1.22511307070987200518e+02
3.57078596490045541145e+00	8.72752718333809838214e+01
4.24757155253689422381e+00	6.04053633521107471438e+01
5.05263106533565942158e+00	4.04990781526950343050e+01
6.01027678207036331059e+00	2.62425551137268193713e+01
7.14942898659756220781e+00	1.64143911998335916280e+01
8.50448934180266924443e+00	9.91162420548498701578e+00
1.01163797976620699615e+01	5.78665035913601144557e+00
1.20337784077758556123e+01	3.27562474435379824556e+00
1.43145893752347568295e+01	1.80460158746197896207e+00
1.70276917222589787571e+01	9.71710527055359540860e-01
2.02550193923065826596e+01	5.13594452428553172041e-01
2.40940356023951700593e+01	2.67514179501653737159e-01
2.86606761694824427877e+01	1.37783153959408155576e-01
3.40928506974680729513e+01	7.03689014948312846487e-02
4.05546073584082762409e+01	3.57154385500922655350e-02
4.82410870416535360050e+01	1.80448139542753217823e-02
5.73844164830238057107e+01	9.08692133057716067146e-03
6.82607183427237913520e+01	4.56511426335556424333e-03
8.11984499318397610068e+01	2.28954962253130004518e-03
9.65883224115866880766e+01	1.14689443522447416350e-03
1.14895100018730616398e+02	5.74015325140445043482e-04
1.36671635646200456904e+02	2.87116744870661373852e-04
1.62575566644379335912e+02	1.43550823144877366536e-04
1.93389175045522421215e+02	7.17496505015588758062e-05
2.30043011977291229186e+02	3.58541728801669074196e-05
2.73643999707466605287e+02	1.79140173797510890701e-05
3.25508859983504294178e+02	8.94950768158045542383e-06
3.87203878181254140145e+02	4.47066341049586014807e-06
4.60592204114509399915e+02	2.23316720537223837353e-06
5.47890117959393364799e+02	1.11545962139150361672e-06
6.51733960488242018982e+02	5.57153282074733693857e-07
7.75259748862943297354e+02	2.78283342588911330721e-07
9.22197882333430356994e+02	1.38993294148375383757e-07
1.09698579789238192461e+03	6.94218731500622102267e-08
1.30490197801439626346e+03	3.46733552877394342880e-08
1.55222535742704167205e+03	1.73178245512999898866e-08
1.84642494289553883391e+03	8.64946675585677882375e-09
2.19638537241654239551e+03	4.32000545417161498556e-09
2.61267522556332642125e+03	2.15763770837781190277e-09
3.10786618778200136148e+03	1.07763635433699179428e-09
3.69691270719501699205e+03	5.38227121657759183329e-10
4.39760360930271235702e+03	2.68818197123416815996e-10
5.23109930805623662309e+03	1.34261522275204046345e-10
6.22257083673020588321e+03	6.70570340607396197045e-11
7.40195999691562155931e+03	3.34916869358286368306e-11
8.80488358164344572288e+03	1.67274461634510367554e-11
1.04737089795944866637e+04	8.35453365797055610707e-12
1.24588336429500304803e+04	4.17267685575316409314e-12
1.48202070579885403276e+04	2.08404585368133078162e-12
1.76291411809594428632e+04	1.04087786075933075944e-12
2.09704640132322201680e+04	5.19867012870167643036e-13
2.49450813523030628858e+04	2.59647857117483285197e-13
2.96730240818886049965e+04	1.29681259157885590743e-13
3.52970730273064327776e+04	6.47693726725720895329e-14
4.19870708444390547811e+04	3.23490968257651572070e-14
4.99450511585511994781e+04	1.61567731387530580875e-14
5.94113398496501540649e+04	8.06950867318361768231e-15
7.06718127392747701379e+04	4.03032025746565056633e-15
8.40665288561828201637e+04	2.01294552235136925600e-15
1.00000000000000000000e+05	1.00536667372296851023e-15
