 L=8, code time=0.022292 (in min) 
wij_min=3.77997266216567595620e-05, wij_max=2.47011449094244994740e+01 
"mu" 	 	 "||A||^2" 
1.00000000000000003643e-10	1.56641674825976642751e+04
1.18953406737032067258e-10	1.56641674825976642751e+04
1.41499129743457873129e-10	1.56641674825976642751e+04
1.68318035333095502864e-10	1.56641674825976606371e+04
2.00220037181558437944e-10	1.56641674825976606371e+04
2.38168555197616074720e-10	1.56641674825976533612e+04
2.83309610183931825768e-10	1.56641674825976497232e+04
3.37006432927192451466e-10	1.56641674825976388092e+04
4.00880632889846438503e-10	1.56641674825976242573e+04
4.76861169771447397447e-10	1.56641674825976133434e+04
5.67242606849198883471e-10	1.56641674825975896965e+04
6.74754405311068558404e-10	1.56641674825975605927e+04
8.02643352225717377815e-10	1.56641674825975096610e+04
9.54771611420806508922e-10	1.56641674825974459964e+04
1.13573335834310288916e-09	1.56641674825973605039e+04
1.35099352119802519251e-09	1.56641674825972368126e+04
1.60705281826163847742e-09	1.56641674825970585516e+04
1.91164407538570385981e-09	1.56641674825968057121e+04
2.27396575235793215061e-09	1.56641674825964437332e+04
2.70495973046313136377e-09	1.56641674825959344162e+04
3.21764175025073519961e-09	1.56641674825952195533e+04
3.82749447851631517473e-09	1.56641674825942063762e+04
4.55293507486693877322e-09	1.56641674825927657366e+04
5.41587137807946464627e-09	1.56641674825907339255e+04
6.44236350872137046605e-09	1.56641674825878635602e+04
7.66341086800746217065e-09	1.56641674825837944809e+04
9.11588829975083781184e-09	1.56641674825780391984e+04
1.08436596868960860500e-08	1.56641674825698919449e+04
1.28989026125330806031e-08	1.56641674825583704660e+04
1.53436840893001327414e-08	1.56641674825420614070e+04
1.82518349431904239544e-08	1.56641674825189857074e+04
2.17111794569450085411e-08	1.56641674824863275717e+04
2.58261876068267474279e-08	1.56641674824401270598e+04
3.07211299886175937724e-08	1.56641674823747543996e+04
3.65438307095725478011e-08	1.56641674822822460555e+04
4.34701315812501717294e-08	1.56641674821513533971e+04
5.17092024289675556895e-08	1.56641674819661384390e+04
6.15098578858050436024e-08	1.56641674817040657217e+04
7.31680714342719159342e-08	1.56641674813332301710e+04
8.70359136148514768755e-08	1.56641674808084953838e+04
1.03532184329566155945e-07	1.56641674800660130131e+04
1.23155060329282628142e-07	1.56641674790153938375e+04
1.46497139830728482315e-07	1.56641674775287756347e+04
1.74263338600964726368e-07	1.56641674754252326238e+04
2.07292177959536982755e-07	1.56641674724487202184e+04
2.46581107582260368077e-07	1.56641674682369848597e+04
2.93316627839004215282e-07	1.56641674622774444288e+04
3.48910121340676632595e-07	1.56641674538447186933e+04
4.15040475785047253506e-07	1.56641674419124829001e+04
4.93704785283900377408e-07	1.56641674250284904701e+04
5.87278661318947677360e-07	1.56641674011377817806e+04
6.98587974678523438553e-07	1.56641673673326367862e+04
8.30994194935338645275e-07	1.56641673194986451563e+04
9.88495904662558603124e-07	1.56641672518139966996e+04
1.17584955405215584945e-06	1.56641671560407903598e+04
1.39871310264723580700e-06	1.56641670205225273094e+04
1.66381688607612741576e-06	1.56641668287654028973e+04
1.97916686785355745422e-06	1.56641665574307444331e+04
2.35428641432241558251e-06	1.56641661734945773787e+04
2.80050389418362536830e-06	1.56641656302284100093e+04
3.33129478793466996157e-06	1.56641648615115791472e+04
3.96268863870147865241e-06	1.56641637737843429932e+04
4.71375313411671956475e-06	1.56641622346603217011e+04
5.60716993820544644058e-06	1.56641600568145477155e+04
6.66991966303011471555e-06	1.56641569751842907863e+04
7.93409666579749174359e-06	1.56641526147094100452e+04
9.43787827777537116788e-06	1.56641464446857517032e+04
1.12266777351081134160e-05	1.56641377141765442502e+04
1.33545156292989743022e-05	1.56641253606231584854e+04
1.58856512942805287736e-05	1.56641078805352226482e+04
1.88965233969120774546e-05	1.56640831465281953570e+04
2.24780583354872084143e-05	1.56640481484543779516e+04
2.67384161583994387596e-05	1.56639986271469479107e+04
3.18062569279411891474e-05	1.56639285562543846027e+04
3.78346261713192539211e-05	1.56638294092066171288e+04
4.50055767570048807541e-05	1.56636891223132497544e+04
5.35356667741071883264e-05	1.56634906282232695958e+04
6.36824994471858567540e-05	1.56632097821196584846e+04
7.57525025877190441017e-05	1.56628124299763203453e+04
9.01101825166500034186e-05	1.56622502655149946804e+04
1.07189131920512647003e-04	1.56614549785270082793e+04
1.27505124071301280918e-04	1.56603299961692082434e+04
1.51671688847092111336e-04	1.56587388396369278780e+04
1.80418640939206798403e-04	1.56564887340674758889e+04
2.14614119785840143937e-04	1.56533075861884663027e+04
2.55290806823951646823e-04	1.56488117446904652752e+04
3.03677111803545452407e-04	1.56424610486024048441e+04
3.61234269970942293779e-04	1.56334965369262245076e+04
4.29700470432083515403e-04	1.56208548873467079829e+04
5.11143348344016536580e-04	1.56030523591930432303e+04
6.08022426164941498343e-04	1.55780301945191513369e+04
7.23263389648351917756e-04	1.55429540232522576844e+04
8.60346441668449106802e-04	1.54939635180502154981e+04
1.02341140210545277975e-03	1.54258779921699260740e+04
1.21738272773965947558e-03	1.53318821656810978311e+04
1.44811822767453002823e-03	1.52032465848998381261e+04
1.72258596539878391929e-03	1.50291777729173918488e+04
2.04907468981584605858e-03	1.47969332717159231834e+04
2.43744415012221672320e-03	1.44923507074559420289e+04
2.89942285388286938308e-03	1.41008902353924258932e+04
3.44896226040575281171e-03	1.36091580935324745951e+04
4.10265810582719023941e-03	1.30067478811050314107e+04
4.88025158365442378317e-03	1.22883299048124663386e+04
5.80522551609488363794e-03	1.14563138762730068265e+04
6.90551352016231627384e-03	1.05244458895420593763e+04
8.21434358491942261116e-03	9.52129900141634243482e+03
9.77124153534648237640e-03	8.49033874190282949712e+03
1.16232246867984945204e-02	7.48323650696171171148e+03
1.38262217376465355173e-02	6.54741034092310383130e+03
1.64467617799466288286e-02	5.71397819262891425751e+03
1.95639834351705663162e-02	4.99260712621125003352e+03
2.32720247896040267899e-02	4.37474429847455030540e+03
2.76828663039206078478e-02	3.84177457908943006260e+03
3.29297125509714835867e-02	3.37345042188585921394e+03
3.91710149080926051113e-02	2.95353482829481208682e+03
4.65952566866466785789e-02	2.57184135061970209790e+03
5.54266452066309589508e-02	2.22358051488579349098e+03
6.59318827133354157244e-02	1.90756098866185402585e+03
7.84282206133764953071e-02	1.62436150172361999466e+03
9.32930402628465715864e-02	1.37484128550902914867e+03
1.10975249641206988316e-01	1.15903062980212962430e+03
1.32008840083141676391e-01	9.75509737989222344368e+02
1.57029012472937740119e-01	8.21386395255411457583e+02
1.86791359902077708233e-01	6.92777162428622546031e+02
2.22194686093951931927e-01	5.85497035756131026574e+02
2.64308148697410261185e-01	4.95644495665827548692e+02
3.14403547159148699652e-01	4.19913148848025912230e+02
3.73993730247878630735e-01	3.55641416083846024776e+02
4.44878283112757622053e-01	3.00716500237123909756e+02
5.29197873595843693018e-01	2.53452434123331585170e+02
6.29498899022188806995e-01	2.12507325616655123213e+02
7.48810385758999941253e-01	1.76845172476153692287e+02
8.90735463861042187084e-01	1.45713365160317948721e+02
1.05956017927761481090e+00	1.18603547534906411443e+02
1.26038292967972220815e+00	9.51817706322833316790e+01
1.49926843278604104981e+00	7.51999023787571445610e+01
1.78343087693190560650e+00	5.84173486512912703006e+01
2.12145178491062758042e+00	4.45583264540628434247e+01
2.52353917043476583260e+00	3.33094046891782582520e+01
3.00183581357558004754e+00	2.43416281267040197633e+01
3.57078596490045541145e+00	1.73349194877845960150e+01
4.24757155253689422381e+00	1.19905754267240993727e+01
5.05263106533565942158e+00	8.03136094436219849513e+00
6.01027678207036331059e+00	5.19744279622693294840e+00
7.14942898659756220781e+00	3.24606415584362562043e+00
8.50448934180266924443e+00	1.95702958038705165933e+00
1.01163797976620699615e+01	1.14084862221358362966e+00
1.20337784077758556123e+01	6.44927170009077066481e-01
1.43145893752347568295e+01	3.54896360207578309698e-01
1.70276917222589787571e+01	1.90920776789369528448e-01
2.02550193923065826596e+01	1.00836762255465645088e-01
2.40940356023951700593e+01	5.24930827166558908181e-02
2.86606761694824427877e+01	2.70251999783077470618e-02
3.40928506974680729513e+01	1.37980863406071338484e-02
4.05546073584082762409e+01	7.00157600412696420195e-03
4.82410870416535360050e+01	3.53688692375487287803e-03
5.73844164830238057107e+01	1.78087931063798774085e-03
6.82607183427237913520e+01	8.94608193295172589819e-04
8.11984499318397610068e+01	4.48647515461715455133e-04
9.65883224115866880766e+01	2.24729537852411543741e-04
1.14895100018730616398e+02	1.12472688328654115016e-04
1.36671635646200456904e+02	5.62565126566625078441e-05
1.62575566644379335912e+02	2.81263504387376748203e-05
1.93389175045522421215e+02	1.40579768217688556224e-05
2.30043011977291229186e+02	7.02488860661991697715e-06
2.73643999707466605287e+02	3.50986483187401101163e-06
3.25508859983504294178e+02	1.75345609394839388081e-06
3.87203878181254140145e+02	8.75924265949471507908e-07
4.60592204114509399915e+02	4.37537217996566504631e-07
5.47890117959393364799e+02	2.18548097681164057502e-07
6.51733960488242018982e+02	1.09160988059178105782e-07
7.75259748862943297354e+02	5.45229925918096402744e-08
9.22197882333430356994e+02	2.72324124244341718591e-08
1.09698579789238192461e+03	1.36015514947511908752e-08
1.30490197801439626346e+03	6.79341098736660980470e-09
1.55222535742704167205e+03	3.39301111556680871771e-09
1.84642494289553883391e+03	1.69465473507283804547e-09
2.19638537241654239551e+03	8.46400974010018655970e-10
2.61267522556332642125e+03	4.22737093616744443964e-10
3.10786618778200136148e+03	2.11136855659379226275e-10
3.69691270719501699205e+03	1.05452621646335862512e-10
4.39760360930271235702e+03	5.26684403320397152285e-11
5.23109930805623662309e+03	2.63053057656009497640e-11
6.22257083673020588321e+03	1.31382077042544099130e-11
7.40195999691562155931e+03	6.56188783555960390553e-12
8.80488358164344572288e+03	3.27733939289472564116e-12
1.04737089795944866637e+04	1.63686924461659350611e-12
1.24588336429500304803e+04	8.17535325703657965304e-13
1.48202070579885403276e+04	4.08318487518415124778e-13
1.76291411809594428632e+04	2.03934895431753169897e-13
2.09704640132322201680e+04	1.01855394189657184988e-13
2.49450813523030628858e+04	5.08717309722363869722e-14
2.96730240818886049965e+04	2.54079128487318124231e-14
3.52970730273064327776e+04	1.26899953492571154516e-14
4.19870708444390547811e+04	6.33802476755525095056e-15
4.99450511585511994781e+04	3.16552974731220183255e-15
5.94113398496501540649e+04	1.58102546398762344656e-15
7.06718127392747701379e+04	7.89643981143426293324e-16
8.40665288561828201637e+04	3.94388091879142095095e-16
1.00000000000000000000e+05	1.96977334791123471461e-16
