L=10, code time=0.169895 (in min) 
wij_min=6.03912548413632066513e-07, wij_max=3.11411096892098200328e+01 
"mu" 	 	 "||A||^2" 
1.00000000000000003643e-10	4.07183848243285389617e+06
1.26038292967972731759e-10	4.07183848242973396555e+06
1.58856512942805273194e-10	4.07183848242477513850e+06
2.00220037181558437944e-10	4.07183848241689847782e+06
2.52353917043476579710e-10	4.07183848240438755602e+06
3.18062569279411905784e-10	4.07183848238450987265e+06
4.00880632889846438503e-10	4.07183848235293524340e+06
5.05263106533567986293e-10	4.07183848230277514085e+06
6.36824994471858619652e-10	4.07183848222309397534e+06
8.02643352225717377815e-10	4.07183848209651699290e+06
1.01163797976620704748e-09	4.07183848189543746412e+06
1.27505124071301293650e-09	4.07183848157601291314e+06
1.60705281826163847742e-09	4.07183848106858553365e+06
2.02550193923066624051e-09	4.07183848026249930263e+06
2.55290806823951637426e-09	4.07183847898198338225e+06
3.21764175025073519961e-09	4.07183847694779746234e+06
4.05546073584082789357e-09	4.07183847371636377648e+06
5.11143348344016536924e-09	4.07183846858301945031e+06
6.44236350872137046605e-09	4.07183846042836923152e+06
8.11984499318400806948e-09	4.07183844747417280450e+06
1.02341140210545267090e-08	4.07183842689559469000e+06
1.28989026125330806031e-08	4.07183839420517813414e+06
1.62575566644379355129e-08	4.07183834227432310581e+06
2.04907468981584594190e-08	4.07183825977878319100e+06
2.58261876068267474279e-08	4.07183812872924748808e+06
3.25508859983505636444e-08	4.07183792054854100570e+06
4.10265810582719057166e-08	4.07183758983996883035e+06
5.17092024289675556895e-08	4.07183706448795553297e+06
6.51733960488242011595e-08	4.07183622993229329586e+06
8.21434358491942174464e-08	4.07183490418686019257e+06
1.03532184329566155945e-07	4.07183279815537063405e+06
1.30490197801440153888e-07	4.07182945259090187028e+06
1.64467617799466277927e-07	4.07182413795324321836e+06
2.07292177959536982755e-07	4.07181569532888708636e+06
2.61267522556332636514e-07	4.07180228373005613685e+06
3.29297125509714798733e-07	4.07178097868277644739e+06
4.15040475785047253506e-07	4.07174713460854580626e+06
5.23109930805625782526e-07	4.07169337205369630828e+06
6.59318827133354204102e-07	4.07160796915962779894e+06
8.30994194935338645275e-07	4.07147230722156586125e+06
1.04737089795945085476e-06	4.07125681484375149012e+06
1.32008840083141951298e-06	4.07091453014136431739e+06
1.66381688607613080389e-06	4.07037088693320751190e+06
2.09704640132323504709e-06	4.06950752236178983003e+06
2.64308148697410834186e-06	4.06813663721326505765e+06
3.33129478793467673784e-06	4.06596047459307312965e+06
4.19870708444391471951e-06	4.06250747492357110605e+06
5.29197873595844737348e-06	4.05703217437234427780e+06
6.66991966303012826807e-06	4.04835949346729181707e+06
8.40665288561833447191e-06	4.03464562197258835658e+06
1.05956017927761705672e-05	4.01301856800591526553e+06
1.33545156292990014073e-05	3.97905705014563258737e+06
1.68318035333095841288e-05	3.92608251637797569856e+06
2.12145178491063193370e-05	3.84431371056067571044e+06
2.67384161583994929697e-05	3.72014312447191867977e+06
3.37006432927193177681e-05	3.53625290605542110279e+06
4.24757155253690260491e-05	3.27403016536817839369e+06
5.35356667741072967466e-05	2.92030424883836135268e+06
6.74754405311069955413e-05	2.47911748437854833901e+06
8.50448934180268636528e-05	1.98361725576864858158e+06
1.07189131920512863844e-04	1.49533287843652046286e+06
1.35099352119802786423e-04	1.08109735842182347551e+06
1.70276917222590137369e-04	7.80366018878798349760e+05
2.14614119785840577618e-04	5.91648958083833218552e+05
2.70495973046313707873e-04	4.86664112127067404799e+05
3.40928506974681473207e-04	4.32667173252020671498e+05
4.29700470432084382765e-04	4.04978366781422577333e+05
5.41587137807947619980e-04	3.88618726426134409849e+05
6.82607183427239223340e-04	3.75414868139376339968e+05
8.60346441668450949945e-04	3.61016119964267767500e+05
1.08436596868961084190e-03	3.43158389848577498924e+05
1.36671635646200728860e-03	3.21029596605936763808e+05
1.72258596539878738874e-03	2.95131168047019455116e+05
2.17111794569450509626e-03	2.66955549879924161360e+05
2.73643999707467175733e-03	2.38203093845951079857e+05
3.44896226040575975061e-03	2.10009810975567088462e+05
4.34701315812502635944e-03	1.82798317683091096114e+05
5.47890117959394518099e-03	1.56673856643570878077e+05
6.90551352016233101899e-03	1.31857419493265246274e+05
8.70359136148516655818e-03	1.08835568305007225717e+05
1.09698579789238633703e-02	8.81947848080742987804e+04
1.38262217376465927632e-02	7.03417937804868124658e+04
1.74263338600965447811e-02	5.53694942112293720129e+04
2.19638537241655142085e-02	4.31169267321879160590e+04
2.76828663039207223395e-02	3.32886649278168697492e+04
3.48910121340678114343e-02	2.55367539708654585411e+04
4.39760360930273042079e-02	1.95060029086755057506e+04
5.54266452066311879343e-02	1.48641423743109753559e+04
6.98587974678526318906e-02	1.13207889751296406757e+04
8.80488358164348283719e-02	8.63391949431492503209e+03
1.10975249641207446283e-01	6.60710132707992124779e+03
1.39871310264724157957e-01	5.08325699993570106017e+03
1.76291411809595149895e-01	3.93840351219190779375e+03
2.22194686093952847861e-01	3.07582949316602980616e+03
2.80050389418363687710e-01	2.42085395947963706931e+03
3.52970730273065746996e-01	1.91669812956603595921e+03
4.44878283112759453921e-01	1.52131317484155215425e+03
5.60716993820546960592e-01	1.20457539830321820773e+03
7.06718127392750639082e-01	9.45794674207690263756e+02
8.90735463861045850820e-01	7.31675504356814826679e+02
1.12266777351081592506e+00	5.54401689132177011743e+02
1.41499129743457885411e+00	4.09496971863710143680e+02
1.78343087693191293397e+00	2.93761587396631966840e+02
2.24780583354873009228e+00	2.03939432641199175578e+02
2.83309610183932969463e+00	1.36372076390349548092e+02
3.57078596490047006640e+00	8.72752718333807848694e+01
4.50055767570050679893e+00	5.30628462003478205133e+01
5.67242606849198960361e+00	3.04444763137145066878e+01
7.14942898659759151769e+00	1.64143911998335170210e+01
9.01101825166503722642e+00	8.31410471846468190904e+00
1.13573335834310746861e+01	3.97253646953041794632e+00
1.43145893752348154493e+01	1.80460158746194787582e+00
1.80418640939207541862e+01	7.87117298731831560588e-01
2.27396575235793214631e+01	3.32951427556186563272e-01
2.86606761694825600273e+01	1.37783153959406517997e-01
3.61234269970943771000e+01	5.61651042245969872591e-02
4.55293507486695716580e+01	2.26657305347886597890e-02
5.73844164830240401898e+01	9.08692133057707046584e-03
7.23263389648354859673e+01	3.62761397767550220622e-03
9.11588829975083712043e+01	1.44426513598898994921e-03
1.14895100018731085356e+02	5.74015325140431707795e-04
1.44811822767453605820e+02	2.27890045768007292164e-04
1.82518349431904624680e+02	9.04122345604690985004e-05
2.30043011977292167103e+02	3.58541728801663382134e-05
2.89942285388288098602e+02	1.42145407162300811666e-05
3.65438307095726202078e+02	5.63443961862546960069e-06
4.60592204114511275748e+02	2.23316720537218755155e-06
5.80522551609490733426e+02	8.85037990194234664206e-07
7.31680714342720762033e+02	3.50738786776861210329e-07
9.22197882333434108659e+02	1.38993294148374245556e-07
1.16232246867985418248e+03	5.50803197461746166345e-08
1.46497139830728792731e+03	2.18270161123119557600e-08
1.84642494289554633724e+03	8.64946675585661007890e-09
2.32720247896041200875e+03	3.42753927988637519630e-09
2.93316627839004831912e+03	1.35823331156719213940e-09
3.69691270719503199871e+03	5.38227121657754013450e-10
4.65952566866468714579e+03	2.13283036756895961694e-10
5.87278661318948888947e+03	8.45175231346880557710e-11
7.40195999691565248213e+03	3.34916869358280422946e-11
9.32930402628469528281e+03	1.32717187344771754807e-11
1.17584955405215823703e+04	5.25917040205009113929e-12
1.48202070579886003543e+04	2.08404585368130008547e-12
1.86791359902078474988e+04	8.25842575876805507115e-13
2.35428641432242038718e+04	3.27255722523432521794e-13
2.96730240818887250498e+04	1.29681259157883773208e-13
3.73993730247880157549e+04	5.13886466781901005884e-14
4.71375313411672905204e+04	2.03637209958077439831e-14
5.94113398496504014474e+04	8.06950867318351670811e-15
7.48810385759003111161e+04	3.19769505636484017845e-15
9.43787827777539059753e+04	1.26714699258958091470e-15
1.18953406737032069941e+05	5.02130900507040319394e-16
1.49926843278604705120e+05	1.98978841806527112458e-16
1.88965233969121152768e+05	7.88491196638060081268e-17
2.38168555197616078658e+05	3.12454510880236850842e-17
3.00183581357559189200e+05	1.23815994091710097964e-17
3.78346261713193263859e+05	4.90644233211695368035e-18
4.76861169771447428502e+05	1.94427032892898676995e-18
6.01027678207038785331e+05	7.70453794385100144876e-19
7.57525025877192034386e+05	3.05306849786373907583e-19
9.54771611420806613751e+05	1.20983598501845279880e-19
1.20337784077759552747e+06	4.79420331265505924134e-20
1.51671688847092399374e+06	1.89979349990088188497e-20
1.91164407538571138866e+06	7.52829011801709577336e-21
2.40940356023952690884e+06	2.98322697197178975848e-21
3.03677111803547292948e+06	1.18215996285506733617e-21
3.82749447851631511003e+06	4.68453185394620099821e-22
4.82410870416539348662e+06	1.85633411552988024060e-22
6.08022426164942700416e+06	7.35607410925218855655e-23
7.66341086800749413669e+06	2.91498312981987763481e-23
9.65883224115870893002e+06	1.15511705305488097505e-23
1.21738272773966696113e+07	4.57736922251204201841e-24
1.53436840893001314253e+07	1.81386890131936372834e-24
1.93389175045524016023e+07	7.18779768735282117770e-25
2.43744415012222155929e+07	2.84830042329600899650e-25
3.07211299886177182198e+07	1.12869277270040159916e-25
3.87203878181255683303e+07	4.47265802696454356156e-26
4.88025158365445360541e+07	1.77237511482493314072e-26
6.15098578858050405979e+07	7.02337073103416447360e-27
7.75259748862949609756e+07	2.78314314012572665616e-27
9.77124153534650206566e+07	1.10287297012565338041e-27
1.23155060329283118248e+08	4.37034218864776589060e-28
1.55222535742704808712e+08	1.73183053381927038515e-28
1.95639834351707279682e+08	6.86270518052181839998e-29
2.46581107582260400057e+08	2.71947638496120011573e-29
3.10786618778202652931e+08	1.07764381739025429011e-29
3.91710149080926060677e+08	4.27036691173935160437e-30
4.93704785283902406693e+08	1.69221344442358096176e-30
6.22257083673023104668e+08	6.70571499047533263968e-31
7.84282206133771419525e+08	2.65726606071264574715e-31
9.88495904662558555603e+08	1.05299180287931849890e-31
1.24588336429501318932e+09	4.17267865391559192396e-32
1.57029012472937750816e+09	1.65350262948238158877e-32
1.97916686785356545448e+09	6.55231608391272399707e-33
2.49450813523031663895e+09	2.59647885029023239567e-33
3.14403547159151268005e+09	1.02890372406736586170e-33
3.96268863870147848129e+09	4.07722509767946162554e-34
4.99450511585516071320e+09	1.61567735720025883394e-34
6.29498899022188758850e+09	6.40242630718481472106e-35
7.93409666579752445221e+09	2.53708219876043036325e-35
1.00000000000000000000e+10	1.00536668044799536163e-35
