 L=6, code time=0.002076 (in min) 
wij_min=1.72247690935911634824e-03, wij_max=1.82585719542567090912e+01 
"mu" 	 	 "||A||^2" 
1.00000000000000003643e-10	2.90803898456165143216e+02
1.18953406737032067258e-10	2.90803898456165143216e+02
1.41499129743457873129e-10	2.90803898456165143216e+02
1.68318035333095502864e-10	2.90803898456165143216e+02
2.00220037181558437944e-10	2.90803898456165143216e+02
2.38168555197616074720e-10	2.90803898456165143216e+02
2.83309610183931825768e-10	2.90803898456165143216e+02
3.37006432927192451466e-10	2.90803898456165143216e+02
4.00880632889846438503e-10	2.90803898456165143216e+02
4.76861169771447397447e-10	2.90803898456165143216e+02
5.67242606849198883471e-10	2.90803898456165143216e+02
6.74754405311068558404e-10	2.90803898456165143216e+02
8.02643352225717377815e-10	2.90803898456165143216e+02
9.54771611420806508922e-10	2.90803898456165029529e+02
1.13573335834310288916e-09	2.90803898456165029529e+02
1.35099352119802519251e-09	2.90803898456165029529e+02
1.60705281826163847742e-09	2.90803898456165029529e+02
1.91164407538570385981e-09	2.90803898456164858999e+02
2.27396575235793215061e-09	2.90803898456164858999e+02
2.70495973046313136377e-09	2.90803898456164745312e+02
3.21764175025073519961e-09	2.90803898456164517938e+02
3.82749447851631517473e-09	2.90803898456164404251e+02
4.55293507486693877322e-09	2.90803898456164063191e+02
5.41587137807946464627e-09	2.90803898456163551600e+02
6.44236350872137046605e-09	2.90803898456162926323e+02
7.66341086800746217065e-09	2.90803898456162073671e+02
9.11588829975083781184e-09	2.90803898456160766273e+02
1.08436596868960860500e-08	2.90803898456159060970e+02
1.28989026125330806031e-08	2.90803898456156673547e+02
1.53436840893001327414e-08	2.90803898456153262941e+02
1.82518349431904239544e-08	2.90803898456148260721e+02
2.17111794569450085411e-08	2.90803898456141382667e+02
2.58261876068267474279e-08	2.90803898456131435069e+02
3.07211299886175937724e-08	2.90803898456117508431e+02
3.65438307095725478011e-08	2.90803898456097783765e+02
4.34701315812501717294e-08	2.90803898456069873646e+02
5.17092024289675556895e-08	2.90803898456030253783e+02
6.15098578858050436024e-08	2.90803898455974547232e+02
7.31680714342719159342e-08	2.90803898455895421193e+02
8.70359136148514768755e-08	2.90803898455783325971e+02
1.03532184329566155945e-07	2.90803898455625073893e+02
1.23155060329282628142e-07	2.90803898455400940293e+02
1.46497139830728482315e-07	2.90803898455083697172e+02
1.74263338600964726368e-07	2.90803898454635032067e+02
2.07292177959536982755e-07	2.90803898454000091078e+02
2.46581107582260368077e-07	2.90803898453101624000e+02
2.93316627839004215282e-07	2.90803898451830434624e+02
3.48910121340676632595e-07	2.90803898450031681477e+02
4.15040475785047253506e-07	2.90803898447486403711e+02
4.93704785283900377408e-07	2.90803898443884804692e+02
5.87278661318947677360e-07	2.90803898438788564818e+02
6.98587974678523438553e-07	2.90803898431577465544e+02
8.30994194935338645275e-07	2.90803898421373844485e+02
9.88495904662558603124e-07	2.90803898406935729781e+02
1.17584955405215584945e-06	2.90803898386506091356e+02
1.39871310264723580700e-06	2.90803898357598313851e+02
1.66381688607612741576e-06	2.90803898316694187542e+02
1.97916686785355745422e-06	2.90803898258814797373e+02
2.35428641432241558251e-06	2.90803898176916334251e+02
2.80050389418362536830e-06	2.90803898061030224653e+02
3.33129478793466996157e-06	2.90803897897052934240e+02
3.96268863870147865241e-06	2.90803897665026113373e+02
4.71375313411671956475e-06	2.90803897336710292620e+02
5.60716993820544644058e-06	2.90803896872146196984e+02
6.66991966303011471555e-06	2.90803896214792189312e+02
7.93409666579749174359e-06	2.90803895284641782837e+02
9.43787827777537116788e-06	2.90803893968487273014e+02
1.12266777351081134160e-05	2.90803892106140210672e+02
1.33545156292989743022e-05	2.90803889470935359896e+02
1.58856512942805287736e-05	2.90803885742142938398e+02
1.88965233969120774546e-05	2.90803880465935321809e+02
2.24780583354872084143e-05	2.90803873000147461880e+02
2.67384161583994387596e-05	2.90803862436124177293e+02
3.18062569279411891474e-05	2.90803847488125427390e+02
3.78346261713192539211e-05	2.90803826336841893863e+02
4.50055767570048807541e-05	2.90803796407969230131e+02
5.35356667741071883264e-05	2.90803754058894298851e+02
6.36824994471858567540e-05	2.90803694135359648953e+02
7.57525025877190441017e-05	2.90803609344156200223e+02
9.01101825166500034186e-05	2.90803489365494044705e+02
1.07189131920512647003e-04	2.90803319597038068878e+02
1.27505124071301280918e-04	2.90803079376763434993e+02
1.51671688847092111336e-04	2.90802739468394065625e+02
1.80418640939206798403e-04	2.90802258503468522122e+02
2.14614119785840143937e-04	2.90801577947208897967e+02
2.55290806823951646823e-04	2.90800614975883547686e+02
3.03677111803545452407e-04	2.90799252399577596861e+02
3.61234269970942293779e-04	2.90797324405484573617e+02
4.29700470432083515403e-04	2.90794596389747994181e+02
5.11143348344016536580e-04	2.90790736429639991911e+02
6.08022426164941498343e-04	2.90785274936837993209e+02
7.23263389648351917756e-04	2.90777547606994232865e+02
8.60346441668449106802e-04	2.90766614773585899911e+02
1.02341140210545277975e-03	2.90751147453803469034e+02
1.21738272773965947558e-03	2.90729266423526951257e+02
1.44811822767453002823e-03	2.90698315147770642852e+02
1.72258596539878391929e-03	2.90654539754198424362e+02
2.04907468981584605858e-03	2.90592638744496809977e+02
2.43744415012221672320e-03	2.90505130918765303250e+02
2.89942285388286938308e-03	2.90381471109820608945e+02
3.44896226040575281171e-03	2.90206819059014151208e+02
4.10265810582719023941e-03	2.89960337217778146623e+02
4.88025158365442378317e-03	2.89612860723459391465e+02
5.80522551609488363794e-03	2.89123754465086165055e+02
6.90551352016231627384e-03	2.88436765153751025537e+02
8.21434358491942261116e-03	2.87474726309904838217e+02
9.77124153534648237640e-03	2.86133148047655424762e+02
1.16232246867984945204e-02	2.84273133725452908038e+02
1.38262217376465355173e-02	2.81714870567853097327e+02
1.64467617799466288286e-02	2.78234294872346595184e+02
1.95639834351705663162e-02	2.73567399961448131762e+02
2.32720247896040267899e-02	2.67428409478416085676e+02
2.76828663039206078478e-02	2.59547919163942367504e+02
3.29297125509714835867e-02	2.49732244652029038434e+02
3.91710149080926051113e-02	2.37933736084760653284e+02
4.65952566866466785789e-02	2.24307629147708524897e+02
5.54266452066309589508e-02	2.09225963320400751400e+02
6.59318827133354157244e-02	1.93233025431585957676e+02
7.84282206133764953071e-02	1.76951250287927393856e+02
9.32930402628465715864e-02	1.60962899859566732630e+02
1.10975249641206988316e-01	1.45700890431539278325e+02
1.32008840083141676391e-01	1.31389033956830559191e+02
1.57029012472937740119e-01	1.18058729034267088309e+02
1.86791359902077708233e-01	1.05625598383820616277e+02
2.22194686093951931927e-01	9.39767001792442044916e+01
2.64308148697410261185e-01	8.30305052602488160574e+01
3.14403547159148699652e-01	7.27615916917125531427e+01
3.73993730247878630735e-01	6.31955568845202719785e+01
4.44878283112757622053e-01	5.43822486359836858583e+01
5.29197873595843693018e-01	4.63620374771573082739e+01
6.29498899022188806995e-01	3.91439046978190248183e+01
7.48810385758999941253e-01	3.27049365681596810873e+01
8.90735463861042187084e-01	2.70051202198400019938e+01
1.05956017927761481090e+00	2.20033734980037536388e+01
1.26038292967972220815e+00	1.76644875394768519072e+01
1.49926843278604104981e+00	1.39557479867943197149e+01
1.78343087693190560650e+00	1.08390707927401059862e+01
2.12145178491062758042e+00	8.26585820458918796305e+00
2.52353917043476583260e+00	6.17804103929532910655e+00
3.00183581357558004754e+00	4.51366701211458654086e+00
3.57078596490045541145e+00	3.21272451166779982046e+00
4.24757155253689422381e+00	2.21994876897050019693e+00
5.05263106533565942158e+00	1.48448774885939838164e+00
6.01027678207036331059e+00	9.58561680592072806739e-01
7.14942898659756220781e+00	5.97132626761397555804e-01
8.50448934180266924443e+00	3.59038277303432629139e-01
1.01163797976620699615e+01	2.08758663659153381742e-01
1.20337784077758556123e+01	1.17737038482372852188e-01
1.43145893752347568295e+01	6.46605808874140541853e-02
1.70276917222589787571e+01	3.47284804537243349531e-02
2.02550193923065826596e+01	1.83187278509480133692e-02
2.40940356023951700593e+01	9.52690513947450356991e-03
2.86606761694824427877e+01	4.90115286669078314280e-03
3.40928506974680729513e+01	2.50098682687660382740e-03
4.05546073584082762409e+01	1.26857309268270509670e-03
4.82410870416535360050e+01	6.40642589735226767635e-04
5.73844164830238057107e+01	3.22507072157918617955e-04
6.82607183427237913520e+01	1.61984455187863963382e-04
8.11984499318397610068e+01	8.12269063226505531709e-05
9.65883224115866880766e+01	4.06838667246756419842e-05
1.14895100018730616398e+02	2.03603863430494015326e-05
1.36671635646200456904e+02	1.01834597739148706224e-05
1.62575566644379335912e+02	5.09124877281398760211e-06
1.93389175045522421215e+02	2.54463525453692819309e-06
2.30043011977291229186e+02	1.27155849829951703397e-06
2.73643999707466605287e+02	6.35306329702553121574e-07
3.25508859983504294178e+02	3.17383816875412811883e-07
3.87203878181254140145e+02	1.58545669818743277089e-07
4.60592204114509399915e+02	7.91956586625185524935e-08
5.47890117959393364799e+02	3.95578225036127813905e-08
6.51733960488242018982e+02	1.97584138999181407765e-08
7.75259748862943297354e+02	9.86878738409757245392e-09
9.22197882333430356994e+02	4.92912532794356075181e-09
1.09698579789238192461e+03	2.46190867549667669276e-09
1.30490197801439626346e+03	1.22962078819956440995e-09
1.55222535742704167205e+03	6.14141523327159230243e-10
1.84642494289553883391e+03	3.06735695295370501346e-10
2.19638537241654239551e+03	1.53200146119279979267e-10
2.61267522556332642125e+03	7.65161900347588746612e-11
3.10786618778200136148e+03	3.82161556836273804255e-11
3.69691270719501699205e+03	1.90871157195576139443e-11
4.39760360930271235702e+03	9.53308284580623714428e-12
5.23109930805623662309e+03	4.76130774060010727879e-12
6.22257083673020588321e+03	2.37803922333093671973e-12
7.40195999691562155931e+03	1.18771348429051073721e-12
8.80488358164344572288e+03	5.93204311231665955179e-13
1.04737089795944866637e+04	2.96276268685135128339e-13
1.24588336429500304803e+04	1.47975359367253121874e-13
1.48202070579885403276e+04	7.39063779041238584229e-14
1.76291411809594428632e+04	3.69125814184181474258e-14
2.09704640132322201680e+04	1.84360087904429097006e-14
2.49450813523030628858e+04	9.20787441627539507568e-15
2.96730240818886049965e+04	4.59887772699803312428e-15
3.52970730273064327776e+04	2.29691188259278516947e-15
4.19870708444390547811e+04	1.14719383216728579491e-15
4.99450511585511994781e+04	5.72966552484031235933e-16
5.94113398496501540649e+04	2.86168439919833399463e-16
7.06718127392747701379e+04	1.42926974480109986266e-16
8.40665288561828201637e+04	7.13849507926093473862e-17
1.00000000000000000000e+05	3.56532502878760374411e-17
