L=12, code time=71.459783 (in min) 
"mu" 	 	 "||A||" 
0.000100000000	3529.120951348787
0.000183298071	3315.418575523663
0.000335981829	2916.530389980287
0.000615848211	2424.677952585290
0.001128837892	1936.828644614417
0.002069138081	1469.632307521560
0.003792690191	1043.871157138126
0.006951927962	684.303137228093
0.012742749857	445.330171250781
0.023357214691	318.138154675331
0.042813323987	240.715715027829
0.078475997035	184.711309326363
0.143844988829	139.438530531777
0.263665089873	103.254392056294
0.483293023857	75.551787085215
0.885866790410	54.343508331662
1.623776739189	38.041236552195
2.976351441631	25.492190922591
5.455594781169	15.877393820969
10.000000000000	8.799733404313

