L=12, code time=71.459783 (in min) 
"mu" 	 	 "||A||" 
0.000100000000	6120.972162576258
0.000183298071	4465.701133620341
0.000335981829	3238.008726206870
0.000615848211	2378.529676385624
0.001128837892	1762.349255610601
0.002069138081	1307.480768195325
0.003792690191	967.165364956296
0.006951927962	713.629380988496
0.012742749857	526.906217933801
0.023357214691	389.611356359615
0.042813323987	287.643107217212
0.078475997035	211.558943694635
0.143844988829	155.144936328007
0.263665089873	113.257529457266
0.483293023857	81.906881729474
0.885866790410	58.285836405881
1.623776739189	40.306248972432
2.976351441631	26.501322614588
5.455594781169	16.043129900692
10.000000000000	8.570182890471

